# Macroscopic dielectric function epsm
#
# Momentum transfer Q=G+q in lattice cooridnates
# G:   0   0   0
# q:   0.0000000   0.0000000   0.0000000
# Momentum transfer Q=G+q in Cartesian cooridnates
# G:   0.0000000   0.0000000   0.0000000
# q:   0.0000000   0.0000000   0.0000000
# Norm2(G+q)   0.0000000
#
# Energy scale=   27.211384
# Used broadening in scaled energy units:    0.108846
#
# Number of k-points=       0
# Unit cell volume [au]=  137.912614
# Coulomb potential v(Q) [au]=          0.000000
#
#             Frequency                Re(epsm)                Im(epsm)       Re(epsm) form KKT
+0.0000000000000000E+00 +0.7236463985081625E+01 +0.0000000000000000E+00 +0.7236295068865984E+01
+0.2720866299370063E-01 +0.7236551430976398E+01 +0.7004075280312471E-03 +0.7236181385852936E+01
+0.5441732598740126E-01 +0.7236813786369043E+01 +0.1400957185261990E-02 +0.7236454874781064E+01
+0.8162598898110189E-01 +0.7237251104396032E+01 +0.2101791183273172E-02 +0.7236921647122937E+01
+0.1088346519748025E+00 +0.7237863473650533E+01 +0.2803051898508336E-02 +0.7237523543893401E+01
+0.1360433149685031E+00 +0.7238651018235397E+01 +0.3504881954952653E-02 +0.7238313240782074E+01
+0.1632519779622038E+00 +0.7239613897835098E+01 +0.4207424307110559E-02 +0.7239274605698744E+01
+0.1904606409559044E+00 +0.7240752307807023E+01 +0.4910822323383022E-02 +0.7240412950460843E+01
+0.2176693039496050E+00 +0.7242066479294508E+01 +0.5615219869943616E-02 +0.7241726578907783E+01
+0.2448779669433057E+00 +0.7243556679363350E+01 +0.6320761395219331E-02 +0.7243216345357814E+01
+0.2720866299370063E+00 +0.7245223211153244E+01 +0.7027592015074380E-02 +0.7244882351305720E+01
+0.2992952929307069E+00 +0.7247066414057400E+01 +0.7735857598808746E-02 +0.7246724991958625E+01
+0.3265039559244076E+00 +0.7249086663918483E+01 +0.8445704856072971E-02 +0.7248744622972439E+01
+0.3537126189181082E+00 +0.7251284373249543E+01 +0.9157281424809953E-02 +0.7250941661068520E+01
+0.3809212819118089E+00 +0.7253659991474859E+01 +0.9870735960336429E-02 +0.7253316553201929E+01
+0.4081299449055095E+00 +0.7256214005193532E+01 +0.1058621822567370E-01 +0.7255869785763547E+01
+0.4353386078992101E+00 +0.7258946938466543E+01 +0.1130387918325098E-01 +0.7258601882073638E+01
+0.4625472708929107E+00 +0.7261859353125999E+01 +0.1202387108809125E-01 +0.7261513403432223E+01
+0.4897559338866113E+00 +0.7264951849106645E+01 +0.1274634758260423E-01 +0.7264604949195163E+01
+0.5169645968803119E+00 +0.7268225064804288E+01 +0.1347146379312852E-01 +0.7267877157181944E+01
+0.5441732598740125E+00 +0.7271679677455352E+01 +0.1419937642832298E-01 +0.7271330704028111E+01
+0.5713819228677133E+00 +0.7275316403541890E+01 +0.1493024387956741E-01 +0.7274966305590180E+01
+0.5985905858614139E+00 +0.7279135999222992E+01 +0.1566422632350194E-01 +0.7278784717370470E+01
+0.6257992488551145E+00 +0.7283139260789218E+01 +0.1640148582684432E-01 +0.7282786734971437E+01
+0.6530079118488151E+00 +0.7287327025147047E+01 +0.1714218645363789E-01 +0.7286973194575536E+01
+0.6802165748425157E+00 +0.7291700170327957E+01 +0.1788649437509091E-01 +0.7291344973453000E+01
+0.7074252378362164E+00 +0.7296259616023377E+01 +0.1863457798215312E-01 +0.7295902990497220E+01
+0.7346339008299170E+00 +0.7301006324152477E+01 +0.1938660800100562E-01 +0.7300648206788562E+01
+0.7618425638236177E+00 +0.7305941299455700E+01 +0.2014275761164251E-01 +0.7305581626187632E+01
+0.7890512268173183E+00 +0.7311065590117450E+01 +0.2090320256970897E-01 +0.7310704295957439E+01
+0.8162598898110189E+00 +0.7316380288422176E+01 +0.2166812133180697E-01 +0.7316017307417065E+01
+0.8434685528047196E+00 +0.7321886531440558E+01 +0.2243769518443816E-01 +0.7321521796626528E+01
+0.8706772157984202E+00 +0.7327585501747887E+01 +0.2321210837681886E-01 +0.7327218945104018E+01
+0.8978858787921208E+00 +0.7333478428175643E+01 +0.2399154825776098E-01 +0.7333109980575888E+01
+0.9250945417858214E+00 +0.7339566586597750E+01 +0.2477620541685880E-01 +0.7339196177762497E+01
+0.9523032047795220E+00 +0.7345851300754534E+01 +0.2556627383020399E-01 +0.7345478859197976E+01
+0.9795118677732226E+00 +0.7352333943108539E+01 +0.2636195101090057E-01 +0.7351959396087301E+01
+0.1006720530766923E+01 +0.7359015935743857E+01 +0.2716343816460837E-01 +0.7358639209201209E+01
+0.1033929193760624E+01 +0.7365898751299678E+01 +0.2797094035042337E-01 +0.7365519769810063E+01
+0.1061137856754325E+01 +0.7372983913947986E+01 +0.2878466664735709E-01 +0.7372602600658098E+01
+0.1088346519748025E+01 +0.7380273000410480E+01 +0.2960483032673234E-01 +0.7379889276979454E+01
+0.1115555182741726E+01 +0.7387767641021380E+01 +0.3043164903080557E-01 +0.7387381427557737E+01
+0.1142763845735427E+01 +0.7395469520833841E+01 +0.3126534495795739E-01 +0.7395080735830496E+01
+0.1169972508729127E+01 +0.7403380380773323E+01 +0.3210614505482550E-01 +0.7402988941039490E+01
+0.1197181171722828E+01 +0.7411502018836803E+01 +0.3295428121570033E-01 +0.7411107839430709E+01
+0.1224389834716529E+01 +0.7419836291349027E+01 +0.3380999048963920E-01 +0.7419439285502834E+01
+0.1251598497710229E+01 +0.7428385114263575E+01 +0.3467351529568997E-01 +0.7427985193309148E+01
+0.1278807160703930E+01 +0.7437150464522293E+01 +0.3554510364665667E-01 +0.7436747537812665E+01
+0.1306015823697630E+01 +0.7446134381469454E+01 +0.3642500938188786E-01 +0.7445728356297987E+01
+0.1333224486691331E+01 +0.7455338968326435E+01 +0.3731349240959748E-01 +0.7454929749841077E+01
+0.1360433149685031E+01 +0.7464766393725233E+01 +0.3821081895919170E-01 +0.7464353884841070E+01
+0.1387641812678732E+01 +0.7474418893307805E+01 +0.3911726184422636E-01 +0.7474002994614303E+01
+0.1414850475672433E+01 +0.7484298771388519E+01 +0.4003310073651793E-01 +0.7483879381055023E+01
+0.1442059138666133E+01 +0.7494408402689746E+01 +0.4095862245209367E-01 +0.7493985416365100E+01
+0.1469267801659834E+01 +0.7504750234147405E+01 +0.4189412124958683E-01 +0.7504323544855255E+01
+0.1496476464653535E+01 +0.7515326786791701E+01 +0.4283989914182547E-01 +0.7514896284821678E+01
+0.1523685127647235E+01 +0.7526140657705787E+01 +0.4379626622135957E-01 +0.7525706230500719E+01
+0.1550893790640936E+01 +0.7537194522068080E+01 +0.4476354100069539E-01 +0.7536756054105344E+01
+0.1578102453634637E+01 +0.7548491135280511E+01 +0.4574205076812571E-01 +0.7548048507947277E+01
+0.1605311116628337E+01 +0.7560033335185155E+01 +0.4673213196002430E-01 +0.7559586426648842E+01
+0.1632519779622038E+01 +0.7571824044374605E+01 +0.4773413055060764E-01 +0.7571372729447241E+01
+0.1659728442615739E+01 +0.7583866272602306E+01 +0.4874840246017129E-01 +0.7583410422598415E+01
+0.1686937105609439E+01 +0.7596163119294673E+01 +0.4977531398288165E-01 +0.7595702601881990E+01
+0.1714145768603140E+01 +0.7608717776171141E+01 +0.5081524223532565E-01 +0.7608252455214745E+01
+0.1741354431596840E+01 +0.7621533529977639E+01 +0.5186857562709052E-01 +0.7621063265376082E+01
+0.1768563094590541E+01 +0.7634613765338232E+01 +0.5293571435463745E-01 +0.7634138412852143E+01
+0.1795771757584242E+01 +0.7647961967732854E+01 +0.5401707091999465E-01 +0.7647481378803275E+01
+0.1822980420577942E+01 +0.7661581726602406E+01 +0.5511307067574180E-01 +0.7661095748163061E+01
+0.1850189083571643E+01 +0.7675476738596249E+01 +0.5622415239796437E-01 +0.7674985212872986E+01
+0.1877397746565344E+01 +0.7689650810958718E+01 +0.5735076888893011E-01 +0.7689153575260818E+01
+0.1904606409559044E+01 +0.7704107865071165E+01 +0.5849338761141130E-01 +0.7703604751571556E+01
+0.1931815072552745E+01 +0.7718851940155110E+01 +0.5965249135660960E-01 +0.7718342775656637E+01
+0.1959023735546445E+01 +0.7733887197137424E+01 +0.6082857894800706E-01 +0.7733371802830444E+01
+0.1986232398540146E+01 +0.7749217922700584E+01 +0.6202216598334351E-01 +0.7748696113904381E+01
+0.2013441061533847E+01 +0.7764848533514376E+01 +0.6323378561737610E-01 +0.7764320119406210E+01
+0.2040649724527547E+01 +0.7780783580668645E+01 +0.6446398938807278E-01 +0.7780248363996063E+01
+0.2067858387521248E+01 +0.7797027754309692E+01 +0.6571334808923338E-01 +0.7796485531089649E+01
+0.2095067050514948E+01 +0.7813585888502951E+01 +0.6698245269266441E-01 +0.7813036447700084E+01
+0.2122275713508649E+01 +0.7830462966319775E+01 +0.6827191532340662E-01 +0.7829906089510597E+01
+0.2149484376502349E+01 +0.7847664125178767E+01 +0.6958237029163369E-01 +0.7847099586192260E+01
+0.2176693039496050E+01 +0.7865194662438554E+01 +0.7091447518530156E-01 +0.7864622226979124E+01
+0.2203901702489751E+01 +0.7883060041273139E+01 +0.7226891202788654E-01 +0.7882479466517975E+01
+0.2231110365483452E+01 +0.7901265896831851E+01 +0.7364638850587905E-01 +0.7900676931007726E+01
+0.2258319028477152E+01 +0.7919818042713697E+01 +0.7504763927114526E-01 +0.7919220424644889E+01
+0.2285527691470853E+01 +0.7938722477765960E+01 +0.7647342732379636E-01 +0.7938115936396602E+01
+0.2312736354464554E+01 +0.7957985393233406E+01 +0.7792454548142394E-01 +0.7957369647118147E+01
+0.2339945017458255E+01 +0.7977613180274584E+01 +0.7940181794142166E-01 +0.7976987937038217E+01
+0.2367153680451955E+01 +0.7997612437871632E+01 +0.8090610194343838E-01 +0.7996977393634634E+01
+0.2394362343445656E+01 +0.8017989981159282E+01 +0.8243828953979790E-01 +0.8017344819925420E+01
+0.2421571006439356E+01 +0.8038752850197509E+01 +0.8399930948237461E-01 +0.8038097243201594E+01
+0.2448779669433057E+01 +0.8059908319219842E+01 +0.8559012923520057E-01 +0.8059241924230857E+01
+0.2475988332426757E+01 +0.8081463906384212E+01 +0.8721175712301231E-01 +0.8080786366963919E+01
+0.2503196995420458E+01 +0.8103427384065949E+01 +0.8886524462679973E-01 +0.8102738328775668E+01
+0.2530405658414159E+01 +0.8125806789727761E+01 +0.9055168883865433E-01 +0.8125105831279219E+01
+0.2557614321407859E+01 +0.8148610437402310E+01 +0.9227223508922235E-01 +0.8147897171750227E+01
+0.2584822984401560E+01 +0.8171846929836869E+01 +0.9402807976258318E-01 +0.8171120935206446E+01
+0.2612031647395261E+01 +0.8195525171341703E+01 +0.9582047331470488E-01 +0.8194786007186615E+01
+0.2639240310388961E+01 +0.8219654381398172E+01 +0.9765072351336399E-01 +0.8218901587279984E+01
+0.2666448973382662E+01 +0.8244244109072529E+01 +0.9952019891930150E-01 +0.8243477203460678E+01
+0.2693657636376362E+01 +0.8269304248309039E+01 +0.1014303326303374E+00 +0.8268522727285635E+01
+0.2720866299370063E+01 +0.8294845054152931E+01 +0.1033826263126316E+00 +0.8294048390022645E+01
+0.2748074962363764E+01 +0.8320877159987372E+01 +0.1053786545458144E+00 +0.8320064799775320E+01
+0.2775283625357464E+01 +0.8347411595852023E+01 +0.1074200695116620E+00 +0.8346582959686010E+01
+0.2802492288351165E+01 +0.8374459807936251E+01 +0.1095086060593441E+00 +0.8373614287297077E+01
+0.2829700951344865E+01 +0.8402033679335103E+01 +0.1116460871840068E+00 +0.8401170635165027E+01
+0.2856909614338566E+01 +0.8430145552172068E+01 +0.1138344299596742E+00 +0.8429264312826557E+01
+0.2884118277332267E+01 +0.8458808251201722E+01 +0.1160756519722896E+00 +0.8457908110227699E+01
+0.2911326940325967E+01 +0.8488035109014614E+01 +0.1183718783042304E+00 +0.8487115322738227E+01
+0.2938535603319668E+01 +0.8517839992978750E+01 +0.1207253491277122E+00 +0.8516899777883143E+01
+0.2965744266313369E+01 +0.8548237334071045E+01 +0.1231384279718424E+00 +0.8547275863940913E+01
+0.2992952929307069E+01 +0.8579242157760834E+01 +0.1256136107358798E+00 +0.8578258560569205E+01
+0.3020161592300770E+01 +0.8610870117131221E+01 +0.1281535355309275E+00 +0.8609863471638377E+01
+0.3047370255294471E+01 +0.8643137528437514E+01 +0.1307609934426632E+00 +0.8642106860472621E+01
+0.3074578918288172E+01 +0.8676061409332174E+01 +0.1334389403201914E+00 +0.8675005687718198E+01
+0.3101787581281872E+01 +0.8709659520001743E+01 +0.1361905097101990E+00 +0.8708577652084955E+01
+0.3128996244275573E+01 +0.8743950407499865E+01 +0.1390190270722219E+00 +0.8742841234233410E+01
+0.3156204907269273E+01 +0.8778953453581597E+01 +0.1419280254294447E+00 +0.8777815744112452E+01
+0.3183413570262974E+01 +0.8814688926390025E+01 +0.1449212626322230E+00 +0.8813521372086639E+01
+0.3210622233256675E+01 +0.8851178036386695E+01 +0.1480027404368497E+00 +0.8849979244234465E+01
+0.3237830896250375E+01 +0.8888442996956545E+01 +0.1511767256325254E+00 +0.8887211482242687E+01
+0.3265039559244076E+01 +0.8926507090185524E+01 +0.1544477734850559E+00 +0.8925241268378912E+01
+0.3292248222237776E+01 +0.8965394738362152E+01 +0.1578207538073689E+00 +0.8964092916077703E+01
+0.3319456885231477E+01 +0.9005131581829321E+01 +0.1613008800163794E+00 +0.9003791946753688E+01
+0.3346665548225177E+01 +0.9045744563899344E+01 +0.1648937415940845E+00 +0.9044365173527407E+01
+0.3373874211218878E+01 +0.9087262023628730E+01 +0.1686053404401356E+00 +0.9085840792646085E+01
+0.3401082874212579E+01 +0.9129713797381434E+01 +0.1724421316862918E+00 +0.9128248483485944E+01
+0.3428291537206280E+01 +0.9173131330215433E+01 +0.1764110696418441E+00 +0.9171619518145521E+01
+0.3455500200199980E+01 +0.9217547798292896E+01 +0.1805196596591132E+00 +0.9215986881785636E+01
+0.3482708863193681E+01 +0.9262998243688028E+01 +0.1847760168515991E+00 +0.9261385405033874E+01
+0.3509917526187381E+01 +0.9309519723164266E+01 +0.1891889327724096E+00 +0.9307851909971328E+01
+0.3537126189181082E+01 +0.9357151472746363E+01 +0.1937679513732331E+00 +0.9355425371443777E+01
+0.3564334852174782E+01 +0.9405935090190361E+01 +0.1985234558244789E+00 +0.9404147095711032E+01
+0.3591543515168483E+01 +0.9455914737792948E+01 +0.2034667680973049E+00 +0.9454060918762339E+01
+0.3618752178162184E+01 +0.9507137368391007E+01 +0.2086102636038772E+00 +0.9505213427000132E+01
+0.3645960841155885E+01 +0.9559652977862498E+01 +0.2139675036834736E+00 +0.9557654203436430E+01
+0.3673169504149585E+01 +0.9613514888030886E+01 +0.2195533893364668E+00 +0.9611436103071322E+01
+0.3700378167143286E+01 +0.9668780064536534E+01 +0.2253843403792583E+00 +0.9666615561749074E+01
+0.3727586830136986E+01 +0.9725509475075890E+01 +0.2314785051690473E+00 +0.9723252943529964E+01
+0.3754795493130687E+01 +0.9783768494390273E+01 +0.2378560072882596E+00 +0.9781412932510676E+01
+0.3782004156124387E+01 +0.9843627363573098E+01 +0.2445392371688874E+00 +0.9841164976086658E+01
+0.3809212819118088E+01 +0.9905161712730512E+01 +0.2515531986878080E+00 +0.9902583787931134E+01
+0.3836421482111789E+01 +0.9968453157753617E+01 +0.2589259234306220E+00 +0.9965749920485955E+01
+0.3863630145105490E+01 +0.1003358998413346E+02 +0.2666889688143950E+00 +0.1003075041858676E+02
+0.3890838808099190E+01 +0.1010066793329487E+02 +0.2748780208722306E+00 +0.1009767956801185E+02
+0.3918047471092891E+01 +0.1016979111009501E+02 +0.2835336286495174E+00 +0.1016663975530910E+02
+0.3945256134086591E+01 +0.1024107303390588E+02 +0.2927021054246576E+00 +0.1023774245824358E+02
+0.3972464797080292E+01 +0.1031463786025368E+02 +0.3024366431852069E+00 +0.1031110938963409E+02
+0.3999673460073993E+01 +0.1039062180534282E+02 +0.3127987021735782E+00 +0.1038687382112568E+02
+0.4026882123067693E+01 +0.1046917481199223E+02 +0.3238597586329474E+00 +0.1046518211736434E+02
+0.4054090786061394E+01 +0.1055046250233123E+02 +0.3357035237568838E+00 +0.1054619551458191E+02
+0.4081299449055094E+01 +0.1063466846952877E+02 +0.3484287891842307E+00 +0.1063009217968711E+02
+0.4108508112048795E+01 +0.1072199696644463E+02 +0.3621531151092265E+00 +0.1071706958445816E+02
+0.4135716775042495E+01 +0.1081267605058649E+02 +0.3770176652291416E+00 +0.1080734722018431E+02
+0.4162925438036196E+01 +0.1090696123596343E+02 +0.3931936222610848E+00 +0.1090116965312292E+02
+0.4190134101029897E+01 +0.1100513967116696E+02 +0.4108908102084337E+00 +0.1099880986509568E+02
+0.4217342764023598E+01 +0.1110753478439807E+02 +0.4303694384472634E+00 +0.1110057270690574E+02
+0.4244551427017298E+01 +0.1121451115987375E+02 +0.4519563195642781E+00 +0.1120679805778091E+02
+0.4271760090010999E+01 +0.1132647903365059E+02 +0.4760675748185164E+00 +0.1131786281986060E+02
+0.4298968753004699E+01 +0.1144389700952197E+02 +0.5032408354846034E+00 +0.1143417996288278E+02
+0.4326177415998400E+01 +0.1156726996055538E+02 +0.5341813967094841E+00 +0.1155619103765063E+02
+0.4353386078992100E+01 +0.1169713569284910E+02 +0.5698287190305742E+00 +0.1168434505529691E+02
+0.4380594741985802E+01 +0.1183402695409986E+02 +0.6114516646093617E+00 +0.1181904981236010E+02
+0.4407803404979503E+01 +0.1197838119572717E+02 +0.6607806884609377E+00 +0.1196056903565050E+02
+0.4435012067973203E+01 +0.1213034336145456E+02 +0.7201749245451772E+00 +0.1210881736435014E+02
+0.4462220730966904E+01 +0.1228936311572356E+02 +0.7927775835503678E+00 +0.1226297928463518E+02
+0.4489429393960604E+01 +0.1245345424367719E+02 +0.8824759512420057E+00 +0.1242088751001902E+02
+0.4516638056954305E+01 +0.1261812337437362E+02 +0.9931825956012523E+00 +0.1257828440786267E+02
+0.4543846719948005E+01 +0.1277572286729214E+02 +0.1126737023442165E+01 +0.1272866984696355E+02
+0.4571055382941706E+01 +0.1291723518829265E+02 +0.1279957028767621E+01 +0.1286492297203927E+02
+0.4598264045935407E+01 +0.1303684864193765E+02 +0.1444512469443013E+01 +0.1298233219994042E+02
+0.4625472708929108E+01 +0.1313408621749815E+02 +0.1610949391893877E+01 +0.1308022138418185E+02
+0.4652681371922808E+01 +0.1321239000283834E+02 +0.1770698937283447E+01 +0.1316177270555747E+02
+0.4679890034916509E+01 +0.1328024661795569E+02 +0.1917408128136629E+01 +0.1323395233561493E+02
+0.4707098697910209E+01 +0.1334919523308677E+02 +0.2052751947317424E+01 +0.1330506927419261E+02
+0.4734307360903910E+01 +0.1342462832059191E+02 +0.2186641929521209E+01 +0.1337910160231754E+02
+0.4761516023897610E+01 +0.1350171615634428E+02 +0.2328050562091184E+01 +0.1345306114334637E+02
+0.4788724686891311E+01 +0.1357118845839274E+02 +0.2477814250705375E+01 +0.1352049906341342E+02
+0.4815933349885012E+01 +0.1362665577339284E+02 +0.2629517577290454E+01 +0.1357669773436845E+02
+0.4843142012878713E+01 +0.1366763485624238E+02 +0.2773120174211666E+01 +0.1362190289024131E+02
+0.4870350675872413E+01 +0.1370248349595857E+02 +0.2898882283777668E+01 +0.1366308977847744E+02
+0.4897559338866114E+01 +0.1374713180505579E+02 +0.3007600770932163E+01 +0.1371114207918438E+02
+0.4924768001859814E+01 +0.1380918308375522E+02 +0.3114304829180433E+01 +0.1377117058204880E+02
+0.4951976664853515E+01 +0.1387897892158202E+02 +0.3229681585608754E+01 +0.1383845282128075E+02
+0.4979185327847215E+01 +0.1394845000703442E+02 +0.3347191373433053E+01 +0.1390882610579763E+02
+0.5006393990840916E+01 +0.1402594732963534E+02 +0.3461430253145818E+01 +0.1398623670762949E+02
+0.5033602653834617E+01 +0.1411830889138612E+02 +0.3582746568962623E+01 +0.1407417819955683E+02
+0.5060811316828318E+01 +0.1421872220442608E+02 +0.3719950601175452E+01 +0.1416938490396637E+02
+0.5088019979822018E+01 +0.1432343387831671E+02 +0.3873180794778753E+01 +0.1426819436667655E+02
+0.5115228642815719E+01 +0.1443169790000975E+02 +0.4051960617306754E+01 +0.1436551675264137E+02
+0.5142437305809419E+01 +0.1452243585238195E+02 +0.4268164968720711E+01 +0.1444491138500650E+02
+0.5169645968803120E+01 +0.1456361311231219E+02 +0.4503900346544867E+01 +0.1448632054126985E+02
+0.5196854631796820E+01 +0.1455281003053860E+02 +0.4715099948396698E+01 +0.1448950791549908E+02
+0.5224063294790521E+01 +0.1452623984669249E+02 +0.4874944455698051E+01 +0.1447895368119792E+02
+0.5251271957784222E+01 +0.1452112168231800E+02 +0.4995901901073529E+01 +0.1448165560443869E+02
+0.5278480620777922E+01 +0.1454740440329300E+02 +0.5104814917900483E+01 +0.1450840614567264E+02
+0.5305689283771623E+01 +0.1459864825054134E+02 +0.5217562611068722E+01 +0.1455715255879873E+02
+0.5332897946765324E+01 +0.1466920464057449E+02 +0.5340375890363615E+01 +0.1462356045892713E+02
+0.5360106609759024E+01 +0.1475588212858482E+02 +0.5479960408618744E+01 +0.1470341879987418E+02
+0.5387315272752724E+01 +0.1485040130757319E+02 +0.5644095546335990E+01 +0.1478935813458295E+02
+0.5414523935746425E+01 +0.1493948234323969E+02 +0.5833371054390836E+01 +0.1487131217422495E+02
+0.5441732598740126E+01 +0.1501390396170997E+02 +0.6039601548465637E+01 +0.1494181399046633E+02
+0.5468941261733827E+01 +0.1507205756578722E+02 +0.6253362381037684E+01 +0.1499871542734127E+02
