#   Frequency/(eV/hbar)                Re(S(w))                Im(S(w))
+0.0000000000000000E+00 +0.0000000000000000E+00 +0.0000000000000000E+00
+0.2720866299370063E-01 +0.5214132542845557E-07 -0.4720302729483653E-03
+0.5441732598740126E-01 +0.2086207820529058E-06 -0.9440996208200812E-03
+0.8162598898110189E-01 +0.4695014212541447E-06 -0.1416247131628642E-02
+0.1088346519748025E+00 +0.8348883898359517E-06 -0.1888511919581650E-02
+0.1360433149685031E+00 +0.1304929021176291E-05 -0.2360933138204546E-02
+0.1632519779622038E+00 +0.1879812963040527E-05 -0.2833549993496184E-02
+0.1904606409559044E+00 +0.2559772342267160E-05 -0.3306401757125999E-02
+0.2176693039496050E+00 +0.3345081966585906E-05 -0.3779527779684532E-02
+0.2448779669433057E+00 +0.4236059563901931E-05 -0.4252967503999353E-02
+0.2720866299370063E+00 +0.5233066059412016E-05 -0.4726760478522213E-02
+0.2992952929307069E+00 +0.6336505891035135E-05 -0.5200946370806162E-02
+0.3265039559244076E+00 +0.7546827363630307E-05 -0.5675564981076252E-02
+0.3537126189181082E+00 +0.8864523042615086E-05 -0.6150656255910787E-02
+0.3809212819118089E+00 +0.1029013018759026E-04 -0.6626260302040805E-02
+0.4081299449055095E+00 +0.1182423122672216E-04 -0.7102417400281083E-02
+0.4353386078992101E+00 +0.1346745427263150E-04 -0.7579168019605060E-02
+0.4625472708929107E+00 +0.1522047368064757E-04 -0.8056552831374778E-02
+0.4897559338866113E+00 +0.1708401065037648E-04 -0.8534612723736356E-02
+0.5169645968803119E+00 +0.1905883387156162E-04 -0.9013388816200361E-02
+0.5441732598740125E+00 +0.2114576021532287E-04 -0.9492922474410829E-02
+0.5713819228677133E+00 +0.2334565547197340E-04 -0.9973255325122320E-02
+0.5985905858614139E+00 +0.2565943513663053E-04 -0.1045442927139738E-01
+0.6257992488551145E+00 +0.2808806524396006E-04 -0.1093648650803498E-01
+0.6530079118488151E+00 +0.3063256325354490E-04 -0.1141946953725146E-01
+0.6802165748425157E+00 +0.3329399898734494E-04 -0.1190342118462239E-01
+0.7074252378362164E+00 +0.3607349562092504E-04 -0.1238838461529673E-01
+0.7346339008299170E+00 +0.3897223073017874E-04 -0.1287440335051480E-01
+0.7618425638236177E+00 +0.4199143739542839E-04 -0.1336152128442885E-01
+0.7890512268173183E+00 +0.4513240536481808E-04 -0.1384978270124793E-01
+0.8162598898110189E+00 +0.4839648227918260E-04 -0.1433923229273278E-01
+0.8434685528047196E+00 +0.5178507496051705E-04 -0.1482991517604762E-01
+0.8706772157984202E+00 +0.5529965076651738E-04 -0.1532187691199285E-01
+0.8978858787921208E+00 +0.5894173901360602E-04 -0.1581516352363322E-01
+0.9250945417858214E+00 +0.6271293247116684E-04 -0.1630982151534719E-01
+0.9523032047795220E+00 +0.6661488892979420E-04 -0.1680589789231940E-01
+0.9795118677732226E+00 +0.7064933284654013E-04 -0.1730344018048152E-01
+0.1006720530766923E+01 +0.7481805707031199E-04 -0.1780249644695036E-01
+0.1033929193760624E+01 +0.7912292465085613E-04 -0.1830311532095758E-01
+0.1061137856754325E+01 +0.8356587073478534E-04 -0.1880534601532009E-01
+0.1088346519748025E+01 +0.8814890455255472E-04 -0.1930923834845613E-01
+0.1115555182741726E+01 +0.9287411150023463E-04 -0.1981484276699003E-01
+0.1142763845735427E+01 +0.9774365532046341E-04 -0.2032221036896092E-01
+0.1169972508729127E+01 +0.1027597803870544E-03 -0.2083139292766814E-01
+0.1197181171722828E+01 +0.1079248140979685E-03 -0.2134244291617426E-01
+0.1224389834716529E+01 +0.1132411693816869E-03 -0.2185541353252842E-01
+0.1251598497710229E+01 +0.1187113473225943E-03 -0.2237035872569307E-01
+0.1278807160703930E+01 +0.1243379399107401E-03 -0.2288733322224983E-01
+0.1306015823697630E+01 +0.1301236329222323E-03 -0.2340639255389739E-01
+0.1333224486691331E+01 +0.1360712089367005E-03 -0.2392759308579240E-01
+0.1360433149685031E+01 +0.1421835504984888E-03 -0.2445099204575816E-01
+0.1387641812678732E+01 +0.1484636434290336E-03 -0.2497664755441718E-01
+0.1414850475672433E+01 +0.1549145802978975E-03 -0.2550461865627062E-01
+0.1442059138666133E+01 +0.1615395640609747E-03 -0.2603496535179874E-01
+0.1469267801659834E+01 +0.1683419118741470E-03 -0.2656774863060395E-01
+0.1496476464653535E+01 +0.1753250590920541E-03 -0.2710303050565553E-01
+0.1523685127647235E+01 +0.1824925634616975E-03 -0.2764087404868555E-01
+0.1550893790640936E+01 +0.1898481095212567E-03 -0.2818134342680092E-01
+0.1578102453634637E+01 +0.1973955132156158E-03 -0.2872450394036283E-01
+0.1605311116628337E+01 +0.2051387267401709E-03 -0.2927042206219015E-01
+0.1632519779622038E+01 +0.2130818436260757E-03 -0.2981916547815390E-01
+0.1659728442615739E+01 +0.2212291040801323E-03 -0.3037080312924097E-01
+0.1686937105609439E+01 +0.2295849005940915E-03 -0.3092540525514533E-01
+0.1714145768603140E+01 +0.2381537838386586E-03 -0.3148304343946937E-01
+0.1741354431596840E+01 +0.2469404688591658E-03 -0.3204379065661311E-01
+0.1768563094590541E+01 +0.2559498415900551E-03 -0.3260772132043838E-01
+0.1795771757584242E+01 +0.2651869657077536E-03 -0.3317491133479995E-01
+0.1822980420577942E+01 +0.2746570898417772E-03 -0.3374543814602229E-01
+0.1850189083571643E+01 +0.2843656551661133E-03 -0.3431938079745447E-01
+0.1877397746565344E+01 +0.2943183033941587E-03 -0.3489681998616779E-01
+0.1904606409559044E+01 +0.3045208852023479E-03 -0.3547783812194644E-01
+0.1931815072552745E+01 +0.3149794691089770E-03 -0.3606251938868324E-01
+0.1959023735546445E+01 +0.3257003508379050E-03 -0.3665094980826673E-01
+0.1986232398540146E+01 +0.3366900631973238E-03 -0.3724321730716903E-01
+0.2013441061533847E+01 +0.3479553865077081E-03 -0.3783941178580648E-01
+0.2040649724527547E+01 +0.3595033596146154E-03 -0.3843962519087866E-01
+0.2067858387521248E+01 +0.3713412915253316E-03 -0.3904395159079867E-01
+0.2095067050514948E+01 +0.3834767737109887E-03 -0.3965248725445487E-01
+0.2122275713508649E+01 +0.3959176931198118E-03 -0.4026533073339756E-01
+0.2149484376502349E+01 +0.4086722459497182E-03 -0.4088258294775726E-01
+0.2176693039496050E+01 +0.4217489522334543E-03 -0.4150434727598917E-01
+0.2203901702489751E+01 +0.4351566712934894E-03 -0.4213072964877848E-01
+0.2231110365483452E+01 +0.4489046181281977E-03 -0.4276183864724522E-01
+0.2258319028477152E+01 +0.4630023807965352E-03 -0.4339778560579263E-01
+0.2285527691470853E+01 +0.4774599388745266E-03 -0.4403868471981064E-01
+0.2312736354464554E+01 +0.4922876830617760E-03 -0.4468465315857387E-01
+0.2339945017458255E+01 +0.5074964360247806E-03 -0.4533581118361303E-01
+0.2367153680451955E+01 +0.5230974745703551E-03 -0.4599228227292017E-01
+0.2394362343445656E+01 +0.5391025532510837E-03 -0.4665419325135804E-01
+0.2421571006439356E+01 +0.5555239295143660E-03 -0.4732167442764645E-01
+0.2448779669433057E+01 +0.5723743905162422E-03 -0.4799485973836902E-01
+0.2475988332426757E+01 +0.5896672817330930E-03 -0.4867388689941942E-01
+0.2503196995420458E+01 +0.6074165375162850E-03 -0.4935889756542316E-01
+0.2530405658414159E+01 +0.6256367137494062E-03 -0.5005003749764216E-01
+0.2557614321407859E+01 +0.6443430227824615E-03 -0.5074745674091288E-01
+0.2584822984401560E+01 +0.6635513708353257E-03 -0.5145130981027450E-01
+0.2612031647395261E+01 +0.6832783980813759E-03 -0.5216175588792597E-01
+0.2639240310388961E+01 +0.7035415216436389E-03 -0.5287895903126958E-01
+0.2666448973382662E+01 +0.7243589817605040E-03 -0.5360308839276737E-01
+0.2693657636376362E+01 +0.7457498914033087E-03 -0.5433431845256080E-01
+0.2720866299370063E+01 +0.7677342896596700E-03 -0.5507282926467332E-01
+0.2748074962363764E+01 +0.7903331992291647E-03 -0.5581880671791223E-01
+0.2775283625357464E+01 +0.8135686884158565E-03 -0.5657244281248165E-01
+0.2802492288351165E+01 +0.8374639380455596E-03 -0.5733393595358607E-01
+0.2829700951344865E+01 +0.8620433137833221E-03 -0.5810349126329339E-01
+0.2856909614338566E+01 +0.8873324443811332E-03 -0.5888132091211400E-01
+0.2884118277332267E+01 +0.9133583064480030E-03 -0.5966764447188600E-01
+0.2911326940325967E+01 +0.9401493164048243E-03 -0.6046268929168653E-01
+0.2938535603319668E+01 +0.9677354303650400E-03 -0.6126669089866679E-01
+0.2965744266313369E+01 +0.9961482527755135E-03 -0.6207989342593774E-01
+0.2992952929307069E+01 +0.1025421154752781E-02 -0.6290255006978485E-01
+0.3020161592300770E+01 +0.1055589403172326E-02 -0.6373492357879929E-01
+0.3047370255294471E+01 +0.1086690301702401E-02 -0.6457728677771009E-01
+0.3074578918288172E+01 +0.1118763345132913E-02 -0.6542992312909318E-01
+0.3101787581281872E+01 +0.1151850388529835E-02 -0.6629312733638186E-01
+0.3128996244275573E+01 +0.1185995832957875E-02 -0.6716720599209604E-01
+0.3156204907269273E+01 +0.1221246829752422E-02 -0.6805247827553657E-01
+0.3183413570262974E+01 +0.1257653505610519E-02 -0.6894927670478058E-01
+0.3210622233256675E+01 +0.1295269211095151E-02 -0.6985794794836642E-01
+0.3237830896250375E+01 +0.1334150795533776E-02 -0.7077885370263054E-01
+0.3265039559244076E+01 +0.1374358911745269E-02 -0.7171237164151070E-01
+0.3292248222237776E+01 +0.1415958354558130E-02 -0.7265889644640193E-01
+0.3319456885231477E+01 +0.1459018437711989E-02 -0.7361884092464645E-01
+0.3346665548225177E+01 +0.1503613414475723E-02 -0.7459263722639578E-01
+0.3373874211218878E+01 +0.1549822948197579E-02 -0.7558073817076548E-01
+0.3401082874212579E+01 +0.1597732640058167E-02 -0.7658361869390397E-01
+0.3428291537206280E+01 +0.1647434622550776E-02 -0.7760177743311512E-01
+0.3455500200199980E+01 +0.1699028228735606E-02 -0.7863573846334057E-01
+0.3482708863193681E+01 +0.1752620749135539E-02 -0.7968605320466871E-01
+0.3509917526187381E+01 +0.1808328290359700E-02 -0.8075330252221000E-01
+0.3537126189181082E+01 +0.1866276752237297E-02 -0.8183809904305918E-01
+0.3564334852174782E+01 +0.1926602943542175E-02 -0.8294108971881076E-01
+0.3591543515168483E+01 +0.1989455860444166E-02 -0.8406295866664647E-01
+0.3618752178162184E+01 +0.2054998156832018E-02 -0.8520443032746433E-01
+0.3645960841155885E+01 +0.2123407841873198E-02 -0.8636627298575969E-01
+0.3673169504149585E+01 +0.2194880247949110E-02 -0.8754930270381017E-01
+0.3700378167143286E+01 +0.2269630321863284E-02 -0.8875438773167527E-01
+0.3727586830136986E+01 +0.2347895304561052E-02 -0.8998245346566502E-01
+0.3754795493130687E+01 +0.2429937880295370E-02 -0.9123448804113665E-01
+0.3782004156124387E+01 +0.2516049896284079E-02 -0.9251154866142709E-01
+0.3809212819118088E+01 +0.2606556779833567E-02 -0.9381476878435915E-01
+0.3836421482111789E+01 +0.2701822813614894E-02 -0.9514536631103279E-01
+0.3863630145105490E+01 +0.2802257473931652E-02 -0.9650465295079294E-01
+0.3890838808099190E+01 +0.2908323095128811E-02 -0.9789404497073741E-01
+0.3918047471092891E+01 +0.3020544200997843E-02 -0.9931507558104419E-01
+0.3945256134086591E+01 +0.3139518948497010E-02 -0.1007694092587930E+00
+0.3972464797080292E+01 +0.3265933270953796E-02 -0.1022588583753661E+00
+0.3999673460073993E+01 +0.3400578502460823E-02 -0.1037854025665772E+00
+0.4026882123067693E+01 +0.3544373534844321E-02 -0.1053512113716403E+00
+0.4054090786061394E+01 +0.3698392936627028E-02 -0.1069586707649257E+00
+0.4081299449055094E+01 +0.3863902999468216E-02 -0.1086104143081315E+00
+0.4108508112048795E+01 +0.4042408446959606E-02 -0.1103093597441514E+00
+0.4135716775042495E+01 +0.4235713658393490E-02 -0.1120587519051856E+00
+0.4162925438036196E+01 +0.4446003903970461E-02 -0.1138622127438739E+00
+0.4190134101029897E+01 +0.4675954533930841E-02 -0.1157237989713803E+00
+0.4217342764023598E+01 +0.4928879742410585E-02 -0.1176480668994910E+00
+0.4244551427017298E+01 +0.5208938102600157E-02 -0.1196401420207552E+00
+0.4271760090010999E+01 +0.5521420546990532E-02 -0.1217057863633407E+00
+0.4298968753004699E+01 +0.5873159265949467E-02 -0.1238514471206410E+00
+0.4326177415998400E+01 +0.6273114797536103E-02 -0.1260842500554624E+00
+0.4353386078992100E+01 +0.6733224159731969E-02 -0.1284118593962913E+00
+0.4380594741985802E+01 +0.7269620450675199E-02 -0.1308420391014919E+00
+0.4407803404979503E+01 +0.7904337633014317E-02 -0.1333815730641104E+00
+0.4435012067973203E+01 +0.8667496279790535E-02 -0.1360338590775507E+00
+0.4462220730966904E+01 +0.9599428127155104E-02 -0.1387939272492639E+00
+0.4489429393960604E+01 +0.1075050377569145E-01 -0.1416391597139324E+00
+0.4516638056954305E+01 +0.1217264589163646E-01 -0.1445155992424931E+00
+0.4543846719948005E+01 +0.1389349790986236E-01 -0.1473289264619617E+00
+0.4571055382941706E+01 +0.1587894039586270E-01 -0.1499652526557812E+00
+0.4598264045935407E+01 +0.1802935138224360E-01 -0.1523478054696232E+00
+0.4625472708929108E+01 +0.2022830500729364E-01 -0.1544651268391760E+00
+0.4652681371922808E+01 +0.2236761795051904E-01 -0.1563548218322220E+00
+0.4679890034916509E+01 +0.2436356065282779E-01 -0.1581193570546181E+00
+0.4707098697910209E+01 +0.2623174144256157E-01 -0.1599044030272458E+00
+0.4734307360903910E+01 +0.2809530711547953E-01 -0.1617827685799105E+00
+0.4761516023897610E+01 +0.3007162755171397E-01 -0.1636970697372305E+00
+0.4788724686891311E+01 +0.3217701656969724E-01 -0.1655279124495335E+00
+0.4815933349885012E+01 +0.3433211446969361E-01 -0.1671879973906172E+00
+0.4843142012878713E+01 +0.3640600575399824E-01 -0.1686647972692105E+00
+0.4870350675872413E+01 +0.3826619559855949E-01 -0.1700623421523392E+00
+0.4897559338866114E+01 +0.3991463287502480E-01 -0.1715911980568288E+00
+0.4924768001859814E+01 +0.4154753730141625E-01 -0.1733600667223287E+00
+0.4951976664853515E+01 +0.4331325601554035E-01 -0.1752436060457198E+00
+0.4979185327847215E+01 +0.4512547099062925E-01 -0.1771277168765052E+00
+0.5006393990840916E+01 +0.4690231391853070E-01 -0.1791244525373682E+00
+0.5033602653834617E+01 +0.4878027555017777E-01 -0.1813378546451299E+00
+0.5060811316828318E+01 +0.5088718568316034E-01 -0.1836830145509828E+00
+0.5088019979822018E+01 +0.5322998671214436E-01 -0.1861087704993310E+00
+0.5115228642815719E+01 +0.5594239410342914E-01 -0.1886121340771380E+00
+0.5142437305809419E+01 +0.5920755686917018E-01 -0.1909104259161815E+00
+0.5169645968803120E+01 +0.6280536994159920E-01 -0.1925430276000752E+00
+0.5196854631796820E+01 +0.6612603339173012E-01 -0.1934364374900424E+00
+0.5224063294790521E+01 +0.6876245048305990E-01 -0.1940690016399350E+00
+0.5251271957784222E+01 +0.7085094565936950E-01 -0.1949725734976223E+00
+0.5278480620777922E+01 +0.7275723204798888E-01 -0.1963174497476364E+00
+0.5305689283771623E+01 +0.7471718867361422E-01 -0.1980328581601234E+00
+0.5332897946765324E+01 +0.7683211027681662E-01 -0.2000414696119703E+00
+0.5360106609759024E+01 +0.7920150081251030E-01 -0.2022971794703875E+00
+0.5387315272752724E+01 +0.8194089209380145E-01 -0.2046852676433620E+00
+0.5414523935746425E+01 +0.8506739550462861E-01 -0.2070154011506553E+00
+0.5441732598740126E+01 +0.8846888887887544E-01 -0.2091498261442377E+00
+0.5468941261733827E+01 +0.9201175496475425E-01 -0.2110608114806175E+00
+0.5496149924727527E+01 +0.9558091988634268E-01 -0.2127802302935684E+00
+0.5523358587721228E+01 +0.9910283379923919E-01 -0.2144338687412477E+00
+0.5550567250714929E+01 +0.1026766788285787E+00 -0.2161475709359754E+00
+0.5577775913708630E+01 +0.1064183672409415E+00 -0.2178585558502403E+00
+0.5604984576702329E+01 +0.1102915523585820E+00 -0.2195248818313623E+00
+0.5632193239696030E+01 +0.1143783730340540E+00 -0.2212192310271810E+00
+0.5659401902689731E+01 +0.1189012555328707E+00 -0.2227616003765077E+00
+0.5686610565683432E+01 +0.1237258213916138E+00 -0.2237064124991603E+00
+0.5713819228677132E+01 +0.1282537074591837E+00 -0.2239524294800902E+00
+0.5741027891670833E+01 +0.1320621026673325E+00 -0.2240406346598047E+00
+0.5768236554664534E+01 +0.1354135550061941E+00 -0.2246073156759669E+00
+0.5795445217658235E+01 +0.1389173289824726E+00 -0.2257531557438864E+00
+0.5822653880651934E+01 +0.1429387410912670E+00 -0.2271138241998120E+00
+0.5849862543645635E+01 +0.1474363017463731E+00 -0.2282648386071745E+00
+0.5877071206639336E+01 +0.1521198151768330E+00 -0.2289999479282231E+00
+0.5904279869633037E+01 +0.1567006481062134E+00 -0.2293672453738719E+00
+0.5931488532626737E+01 +0.1609832625135285E+00 -0.2295571153810234E+00
+0.5958697195620438E+01 +0.1649262220335601E+00 -0.2299100114319828E+00
+0.5985905858614139E+01 +0.1688568020248818E+00 -0.2307249409892171E+00
+0.6013114521607839E+01 +0.1732242519413412E+00 -0.2318159189263567E+00
+0.6040323184601539E+01 +0.1779920896934858E+00 -0.2327501164867969E+00
+0.6067531847595240E+01 +0.1828312626200921E+00 -0.2335220323321654E+00
+0.6094740510588942E+01 +0.1877998852513110E+00 -0.2344160452789701E+00
+0.6121949173582642E+01 +0.1932652179768264E+00 -0.2353245218752673E+00
+0.6149157836576343E+01 +0.1992062753234274E+00 -0.2357390711875686E+00
+0.6176366499570044E+01 +0.2050546459028975E+00 -0.2354395924234015E+00
+0.6203575162563745E+01 +0.2102999764896364E+00 -0.2348609634875946E+00
+0.6230783825557444E+01 +0.2150356974722688E+00 -0.2346754491461058E+00
+0.6257992488551145E+01 +0.2198289784182961E+00 -0.2352053598390435E+00
+0.6285201151544846E+01 +0.2252603242157586E+00 -0.2362148696256318E+00
+0.6312409814538547E+01 +0.2314139399799486E+00 -0.2371461905331313E+00
+0.6339618477532247E+01 +0.2378997835351286E+00 -0.2378186671789621E+00
+0.6366827140525948E+01 +0.2446062207047246E+00 -0.2385339417798996E+00
+0.6394035803519649E+01 +0.2518304478742625E+00 -0.2393947489073457E+00
+0.6421244466513349E+01 +0.2597635629659493E+00 -0.2402089677853241E+00
+0.6448453129507049E+01 +0.2684349303282444E+00 -0.2407992577489878E+00
+0.6475661792500750E+01 +0.2778323874452820E+00 -0.2410326796029492E+00
+0.6502870455494451E+01 +0.2879112312564262E+00 -0.2408683328183558E+00
+0.6530079118488151E+01 +0.2988213339182547E+00 -0.2403809295651551E+00
+0.6557287781481852E+01 +0.3110031225745098E+00 -0.2393331758557469E+00
+0.6584496444475553E+01 +0.3245868997909522E+00 -0.2369434217952160E+00
+0.6611705107469254E+01 +0.3389803283292677E+00 -0.2325608530596820E+00
+0.6638913770462954E+01 +0.3534929492059231E+00 -0.2262374421708488E+00
+0.6666122433456654E+01 +0.3679997232195846E+00 -0.2182344404092726E+00
+0.6693331096450355E+01 +0.3825921118665139E+00 -0.2083299311132130E+00
+0.6720539759444056E+01 +0.3969078194071967E+00 -0.1960169807415449E+00
+0.6747748422437756E+01 +0.4101238179937579E+00 -0.1810774689500816E+00
+0.6774957085431457E+01 +0.4213307909819224E+00 -0.1638316240188601E+00
+0.6802165748425158E+01 +0.4299182102034404E+00 -0.1450471702618956E+00
+0.6829374411418859E+01 +0.4357557956002099E+00 -0.1256701161758725E+00
+0.6856583074412559E+01 +0.4392676122774240E+00 -0.1065301676946608E+00
+0.6883791737406260E+01 +0.4412886102360724E+00 -0.8789622279349386E-01
+0.6911000400399960E+01 +0.4424614830717846E+00 -0.6924026013380814E-01
+0.6938209063393661E+01 +0.4425701800462460E+00 -0.4965563672737617E-01
+0.6965417726387361E+01 +0.4404807069919179E+00 -0.2878531581876148E-01
+0.6992626389381062E+01 +0.4350155620861619E+00 -0.7426580931216794E-02
+0.7019835052374763E+01 +0.4258891532678292E+00 +0.1296917253941553E-01
+0.7047043715368464E+01 +0.4137531841448081E+00 +0.3118870034739123E-01
+0.7074252378362164E+01 +0.3996417922005808E+00 +0.4679423421181753E-01
+0.7101461041355865E+01 +0.3841568780208755E+00 +0.5995243164949948E-01
+0.7128669704349565E+01 +0.3674067847125543E+00 +0.7055671386880744E-01
+0.7155878367343266E+01 +0.3498521305795459E+00 +0.7809810890046133E-01
+0.7183087030336966E+01 +0.3324336420703889E+00 +0.8246167378660685E-01
+0.7210295693330667E+01 +0.3158829313114819E+00 +0.8404791193058903E-01
+0.7237504356324368E+01 +0.3006275138315339E+00 +0.8328054946158242E-01
+0.7264713019318068E+01 +0.2870843811835800E+00 +0.8058856318235653E-01
+0.7291921682311769E+01 +0.2756044982204111E+00 +0.7662507740301017E-01
+0.7319130345305470E+01 +0.2661952057444555E+00 +0.7226853622427638E-01
+0.7346339008299170E+01 +0.2582769302053389E+00 +0.6828894159254117E-01
+0.7373547671292870E+01 +0.2509209579391016E+00 +0.6479252907041047E-01
+0.7400756334286571E+01 +0.2435768683451175E+00 +0.6118971425273988E-01
+0.7427964997280272E+01 +0.2364336049254229E+00 +0.5683699988706459E-01
+0.7455173660273973E+01 +0.2300438144913048E+00 +0.5163550810095820E-01
+0.7482382323267673E+01 +0.2246633467564621E+00 +0.4591334442634443E-01
